Time (s),Tricep,Shoulder
0.0,-0.158386,0.0997925
0.0005,-0.0537109,0.126953
0.001,0.0631714,0.151978
0.0015,0.230713,0.21759
0.002,0.37262,0.258789
0.0025,0.514221,0.164795
0.003,0.621948,0.0765991
0.0035,0.696716,0.0198364
0.004,0.735168,-0.0292969
0.0045000000000000005,0.617981,-0.0637817
0.005,0.405579,-0.0698853
0.0055,0.248413,-0.0564575
0.006,0.164185,-0.0479126
0.006500000000000001,0.10376,-0.0289917
0.007,0.0640869,-0.0146484
0.0075,0.055542,0.00396729
0.008,0.0387573,0.017395
0.0085,0.0131226,0.015564
0.009000000000000001,-0.0134277,-0.00305176
0.0095,-0.032959,-0.0201416
0.01,-0.06073,-0.0253296
0.0105,-0.0857544,-0.0192261
0.011,-0.131531,-0.00946045
0.0115,-0.169373,-0.0100708
0.012,-0.177612,-0.00671387
0.0125,-0.134888,-0.010376
0.013000000000000001,-0.098877,-0.00854492
0.0135,-0.0512695,-0.00488281
0.014,-0.0152588,-0.0137329
0.0145,0.0421143,-0.0204468
0.015,0.145874,-0.0265503
0.0155,0.245667,-0.0299072
0.016,0.293884,-0.0250244
0.0165,0.287781,0.000305176
0.017,0.225525,0.00274658
0.0175,0.0991821,-0.0167847
0.018000000000000002,-0.0515747,-0.0543213
0.0185,-0.183716,-0.0701904
0.019,-0.342407,-0.0762939
0.0195,-0.506592,-0.0698853
0.02,-0.631714,-0.0338745
0.0205,-0.666809,-0.00854492
0.021,-0.606689,0.00488281
0.021500000000000002,-0.515442,0.0280762
0.022,-0.401917,0.0549316
0.0225,-0.282898,0.169373
0.023,-0.184937,0.169678
0.0235,-0.115967,0.0405884
0.024,-0.0735474,-0.125427
0.0245,-0.0384521,-0.26062
0.025,-0.00762939,-0.286865
0.025500000000000002,0.0228882,-0.191956
0.026000000000000002,0.0537109,-0.0827026
0.0265,0.0875854,0.116272
0.027,0.110168,0.138245
0.0275,0.123596,0.119629
0.028,0.131836,0.0601196
0.0285,0.140381,0.143127
0.029,0.14679,0.457764
0.029500000000000002,0.151672,0.462341
0.03,0.153198,0.386047
0.0305,0.158386,0.320435
0.031,0.140076,0.222168
0.0315,0.100403,0.103455
0.032,0.0177002,-0.0695801
0.0325,-0.0811768,-0.161438
0.033,-0.160522,-0.145569
0.0335,-0.20874,-0.110779
0.034,-0.214844,-0.0933838
0.0345,-0.187988,-0.0909424
0.035,-0.146484,-0.0918579
0.035500000000000004,-0.108643,-0.0906372
0.036000000000000004,-0.0521851,-0.0762939
0.0365,0.0088501,-0.0619507
0.037,0.0894165,-0.0491333
0.0375,0.223999,-0.039978
0.038,0.406189,-0.0317383
0.0385,0.562439,-0.0216675
0.039,0.614014,-0.0219727
0.0395,0.583801,-0.0354004
0.04,0.458984,-0.0531006
0.0405,0.317078,-0.0601196
0.041,0.189209,-0.0546265
0.0415,0.123596,-0.0509644
0.042,0.12146,-0.0479126
0.0425,0.108643,-0.0448608
0.043000000000000003,0.0543213,-0.0387573
0.043500000000000004,-0.00305176,-0.0360107
0.044,-0.0344849,-0.0354004
0.0445,-0.045166,-0.032959
0.045,-0.0369263,-0.0296021
0.0455,-0.0183105,-0.0262451
0.046,-0.012207,-0.0238037
0.0465,-0.0436401,-0.0198364
0.047,-0.0909424,-0.0131226
0.0475,-0.116272,-0.00946045
0.048,-0.139771,-0.00640869
0.0485,-0.155334,-0.00335693
0.049,-0.162659,-0.000305176
0.0495,-0.162659,0.000305176
0.05,-0.161438,0.00366211
0.0505,-0.162048,0.00518799
0.051000000000000004,-0.158997,0.00396729
0.051500000000000004,-0.148621,-0.00396729
0.052000000000000005,-0.144958,-0.0198364
0.0525,-0.161743,-0.0469971
0.053,-0.193787,-0.0759888
0.0535,-0.267029,-0.0979614
0.054,-0.366821,-0.0982666
0.0545,-0.430908,-0.104675
0.055,-0.441589,-0.110779
0.0555,-0.437622,-0.104065
0.056,-0.396423,-0.0817871
0.0565,-0.338135,-0.0311279
0.057,-0.261841,0.0390625
0.0575,-0.172119,0.115967
0.058,-0.00274658,0.229797
0.0585,0.241089,0.37384
0.059000000000000004,0.521851,0.40863
0.059500000000000004,0.759277,0.298462
0.06,0.866394,0.160828
0.0605,0.838318,0.0656128
0.061,0.708008,-0.0131226
0.0615,0.492249,-0.0643921
0.062,0.280457,-0.0778198
0.0625,0.133972,-0.0527954
0.063,0.0466919,-0.038147
0.0635,0.00427246,-0.0390625
0.064,-0.0201416,-0.0405884
0.0645,-0.0283813,-0.0384521
0.065,-0.0375366,-0.0326538
0.0655,-0.0415039,-0.027771
0.066,-0.0430298,-0.0302124
0.0665,-0.0524902,-0.0332642
0.067,-0.0775146,-0.03479
0.0675,-0.0946045,-0.0323486
0.068,-0.0994873,-0.0305176
0.0685,-0.101013,-0.0271606
0.069,-0.103455,-0.022583
0.0695,-0.108948,-0.0192261
0.07,-0.123901,-0.0180054
0.07050000000000001,-0.126953,-0.0183105
0.07100000000000001,-0.115356,-0.0186157
0.07150000000000001,-0.0933838,-0.0180054
0.07200000000000001,-0.0811768,-0.0170898
0.0725,-0.0564575,-0.0161743
0.073,-0.022583,-0.015564
0.0735,0.00976563,-0.0125122
0.074,0.0195313,-0.0109863
0.0745,0.0119019,-0.010376
0.075,-0.0244141,-0.00762939
0.0755,-0.0549316,-0.00518799
0.076,-0.0860596,-0.00488281
0.0765,-0.0857544,-0.00183105
0.077,-0.127258,-0.000610352
0.0775,-0.205688,0.00274658
0.078,-0.26001,0.00183105
0.0785,-0.278015,-0.00152588
0.079,-0.299683,-0.0134277
0.0795,-0.310059,-0.0289917
0.08,-0.237427,-0.0292969
0.0805,-0.15564,-0.0411987
0.081,-0.103455,-0.0509644
0.0815,-0.0915527,-0.0509644
0.082,-0.131226,-0.0585938
0.0825,-0.172424,-0.0637817
0.083,-0.180969,-0.0759888
0.0835,-0.102234,-0.108643
0.084,-0.0247192,-0.108948
0.0845,0.0149536,-0.0488281
0.085,0.0213623,0.0546265
0.0855,0.00915527,0.0997925
0.08600000000000001,-0.00457764,0.0750732
0.08650000000000001,0.0131226,0.0131226
0.08700000000000001,0.0531006,-0.0473022
0.08750000000000001,0.12207,-0.0216675
0.088,0.264893,0.122375
0.0885,0.46875,0.187988
0.089,0.53009,0.178528
0.0895,0.509338,0.137939
0.09,0.621033,0.0933838
0.0905,0.76416,0.22522
0.091,0.828247,0.277405
0.0915,0.738525,0.156555
0.092,0.611572,0.0662231
0.0925,0.43396,0.0402832
0.093,0.228577,0.0326538
0.0935,0.0469971,0.00152588
0.094,-0.088501,-0.0341797
0.0945,-0.161133,-0.0775146
0.095,-0.193787,-0.160217
0.0955,-0.211792,-0.248108
0.096,-0.228882,-0.308533
0.0965,-0.244141,-0.317993
0.097,-0.244141,-0.3125
0.0975,-0.237427,-0.289917
0.098,-0.240784,-0.245972
0.0985,-0.25116,-0.167236
0.099,-0.255127,-0.072937
0.0995,-0.247803,0.0128174
0.1,-0.233154,0.103149
0.1005,-0.209656,0.146179
0.101,-0.184937,0.189819
0.1015,-0.167847,0.231628
0.10200000000000001,-0.161133,0.267639
0.10250000000000001,-0.155945,0.498962
0.10300000000000001,-0.148621,0.570374
0.10350000000000001,-0.142517,0.402222
0.10400000000000001,-0.145569,0.224609
0.1045,-0.144043,0.0802612
0.105,-0.142822,-0.00732422
0.1055,-0.126343,-0.0500488
0.106,-0.0979614,-0.0863647
0.1065,-0.057373,-0.110474
0.107,-0.0299072,-0.0997925
0.1075,-0.00671387,-0.0524902
0.108,0.0170898,-0.0357056
0.1085,0.0842285,-0.0506592
0.109,0.152283,-0.0848389
0.1095,0.19043,-0.100708
0.11,0.171204,-0.101624
0.1105,0.124817,-0.101624
0.111,-0.00427246,-0.100403
0.1115,-0.15686,-0.100098
0.112,-0.227356,-0.10437
0.1125,-0.206604,-0.0985718
0.113,-0.088501,-0.102234
0.1135,0.0765991,-0.11322
0.114,0.19928,-0.101013
0.1145,0.284729,-0.0967407
0.115,0.3302,-0.0927734
0.1155,0.301208,-0.0775146
0.116,0.22583,-0.0747681
0.1165,0.142822,-0.0656128
0.117,0.140076,-0.0305176
0.11750000000000001,0.174866,0.0350952
0.11800000000000001,0.189514,0.0970459
0.11850000000000001,0.0476074,0.103149
0.11900000000000001,-0.0793457,0.0665283
0.11950000000000001,-0.23407,0.119324
0.12,-0.382385,0.0845337
0.1205,-0.405579,0.00244141
0.121,-0.324402,-0.0238037
0.1215,-0.293884,-0.0189209
0.122,-0.325317,0.0186157
0.1225,-0.365295,0.020752
0.123,-0.404053,-0.00244141
0.1235,-0.425415,-0.0283813
0.124,-0.461731,-0.0405884
0.1245,-0.501709,-0.0393677
0.125,-0.474243,-0.0238037
0.1255,-0.380249,-0.00854492
0.126,-0.233459,-0.000915527
0.1265,-0.0674438,0.00732422
0.127,0.167236,0.0219727
0.1275,0.419312,0.0366211
0.128,0.658875,0.0534058
0.1285,0.827332,0.0616455
0.129,0.940247,0.0552368
0.1295,0.999146,0.0543213
0.13,0.962524,0.0634766
0.1305,0.838318,0.0613403
0.131,0.750732,0.0421143
0.1315,0.603943,0.0228882
0.132,0.382996,0.00671387
0.1325,0.191956,-0.00457764
0.133,0.0421143,-0.010376
0.1335,-0.0540161,-0.0131226
0.134,-0.11322,-0.0180054
0.1345,-0.156555,-0.0241089
0.135,-0.192871,-0.0308228
0.1355,-0.218201,-0.0463867
0.136,-0.231934,-0.103149
0.1365,-0.240479,-0.151367
0.137,-0.247803,-0.169983
0.1375,-0.256042,-0.227661
0.138,-0.256958,-0.233459
0.1385,-0.254822,-0.187683
0.139,-0.248413,-0.137329
0.1395,-0.243225,-0.0872803
0.14,-0.255127,-0.0305176
0.1405,-0.293884,0.0125122
0.14100000000000001,-0.353699,0.0469971
0.14150000000000001,-0.452881,0.090332
0.14200000000000002,-0.552063,0.114441
0.14250000000000002,-0.61554,0.125427
0.14300000000000002,-0.628357,0.161743
0.14350000000000002,-0.608215,0.19165
0.14400000000000002,-0.558777,0.204773
0.1445,-0.495911,0.194702
0.145,-0.438538,0.210571
0.1455,-0.348206,0.227966
0.146,-0.184631,0.209961
0.1465,0.0448608,0.168762
0.147,0.372009,0.142822
0.1475,0.812683,0.121155
0.148,1.18011,0.130005
0.1485,1.2619,0.107422
0.149,1.10596,0.0595093
0.1495,0.897217,-0.0125122
0.15,0.731812,-0.0756836
0.1505,0.623474,-0.100708
0.151,0.611572,-0.108032
0.1515,0.601196,-0.110779
0.152,0.523376,-0.0997925
0.1525,0.339355,-0.0726318
0.153,0.143127,-0.0543213
0.1535,-0.0167847,-0.071106
0.154,-0.136108,-0.0775146
0.1545,-0.202026,-0.078125
0.155,-0.230103,-0.0875854
0.1555,-0.272217,-0.071106
0.156,-0.302734,-0.0662231
0.1565,-0.308533,-0.0549316
0.157,-0.308533,-0.0457764
0.1575,-0.330811,-0.0552368
0.158,-0.357056,-0.0567627
0.1585,-0.36377,-0.0506592
0.159,-0.355835,-0.0463867
0.1595,-0.307922,-0.0427246
0.16,-0.250244,-0.0521851
0.1605,-0.190735,-0.0698853
0.161,-0.152283,-0.0918579
0.1615,-0.11261,-0.100708
0.162,-0.0686646,-0.0997925
0.1625,-0.015564,-0.09552
0.163,-0.00244141,-0.0836182
0.1635,-0.0576782,-0.0616455
0.164,-0.126648,-0.032959
0.1645,-0.166016,0.00305176
0.165,-0.202942,0.0570679
0.1655,-0.22644,0.114746
0.166,-0.205994,0.158081
0.1665,-0.158386,0.163574
0.167,-0.119019,0.158386
0.1675,-0.106201,0.178833
0.168,-0.0802612,0.134277
0.1685,-0.0387573,-0.0286865
0.169,-0.00762939,-0.142212
0.1695,-0.00274658,-0.120239
0.17,-0.0146484,-0.0698853
0.1705,-0.0201416,-0.0332642
0.171,-0.0201416,-0.0350952
0.1715,-0.0241089,-0.0619507
0.17200000000000001,-0.0234985,-0.0213623
0.17250000000000001,-0.0186157,0.0680542
0.17300000000000001,-0.0112915,0.0164795
0.17350000000000002,-0.00457764,-0.00488281
0.17400000000000002,0.00427246,0.117493
0.17450000000000002,0.0189209,0.159912
0.17500000000000002,0.0402832,0.133362
0.17550000000000002,0.0704956,0.0592041
0.176,0.0817871,0.0109863
0.1765,0.0836182,-0.00427246
0.177,0.0790405,-0.0177002
0.1775,0.0469971,-0.0286865
0.178,0.0186157,-0.0387573
0.1785,0.00335693,-0.00366211
0.179,0.00457764,0.0244141
0.1795,0.043335,0.022583
0.18,0.098877,-0.00701904
0.1805,0.15625,-0.0219727
0.181,0.211182,-0.0219727
0.1815,0.259094,-0.0149536
0.182,0.308838,-0.012207
0.1825,0.37323,-0.0119019
0.183,0.374451,-0.0115967
0.1835,0.301208,-0.0140381
0.184,0.206909,-0.0213623
0.1845,0.13916,-0.020752
0.185,0.0970459,-0.0143433
0.1855,0.0772095,-0.0109863
0.186,0.0534058,-0.0140381
0.1865,0.0158691,-0.0149536
0.187,-0.0265503,-0.0146484
0.1875,-0.0662231,-0.0128174
0.188,-0.088501,-0.00915527
0.1885,-0.114136,-0.00640869
0.189,-0.135193,-0.010376
0.1895,-0.144958,-0.0219727
0.19,-0.150146,-0.0271606
0.1905,-0.180359,-0.0286865
0.191,-0.247192,-0.0341797
0.1915,-0.30304,-0.0460815
0.192,-0.375671,-0.0543213
0.1925,-0.444031,-0.0570679
0.193,-0.489807,-0.0527954
0.1935,-0.50415,-0.0527954
0.194,-0.498657,-0.0506592
0.1945,-0.474548,-0.0427246
0.195,-0.415649,-0.0396729
0.1955,-0.322266,-0.0354004
0.196,-0.227661,-0.0247192
0.1965,-0.126343,-0.0140381
0.197,-0.0119019,0.0332642
0.1975,0.163269,0.0674438
0.198,0.446167,0.0598145
0.1985,0.719604,0.0619507
0.199,0.770874,0.0732422
0.1995,0.652771,0.0793457
0.2,0.466003,0.108032
0.2005,0.343628,0.116272
0.201,0.316772,0.0836182
0.2015,0.410156,0.0769043
0.202,0.570374,0.0723267
0.2025,0.653687,0.0723267
0.203,0.579529,0.0796509
0.20350000000000001,0.464783,0.0921631
0.20400000000000001,0.371704,0.0775146
0.20450000000000002,0.267944,0.0488281
0.20500000000000002,0.191956,0.0402832
0.20550000000000002,0.131531,0.0460815
0.20600000000000002,0.0335693,0.0250244
0.20650000000000002,-0.083313,0.0109863
0.20700000000000002,-0.178223,0.00793457
0.20750000000000002,-0.239563,0.0296021
0.20800000000000002,-0.279541,0.0543213
0.2085,-0.296326,0.0314331
0.209,-0.303345,-0.0112915
0.2095,-0.300293,-0.0430298
0.21,-0.291748,-0.0497437
0.2105,-0.271606,-0.0469971
0.211,-0.232544,-0.0531006
0.2115,-0.205994,-0.0708008
0.212,-0.202637,-0.0823975
0.2125,-0.204468,-0.0909424
0.213,-0.200806,-0.104065
0.2135,-0.19165,-0.109863
0.214,-0.182495,-0.104065
0.2145,-0.177307,-0.0924683
0.215,-0.170593,-0.108032
0.2155,-0.157776,-0.128174
0.216,-0.144043,-0.138245
0.2165,-0.127869,-0.169373
0.217,-0.11322,-0.188904
0.2175,-0.100403,-0.188599
0.218,-0.088501,-0.167847
0.2185,-0.0750732,-0.136414
0.219,-0.0634766,-0.106812
0.2195,-0.0457764,-0.0863647
0.22,-0.0292969,-0.0897217
0.2205,-0.0140381,-0.0552368
0.221,0.00274658,0.012207
0.2215,0.0161743,0.0262451
0.222,0.0228882,0.0967407
0.2225,0.0238037,0.297852
0.223,0.0143433,0.336304
0.2235,0.0137329,0.257263
0.224,0.0183105,0.189819
0.2245,0.0241089,0.211487
0.225,0.03479,0.370483
0.2255,0.0418091,0.42511
0.226,0.0479126,0.259094
0.2265,0.0479126,0.169678
0.227,0.0515747,0.124512
0.2275,0.0521851,0.0369263
0.228,0.0512695,-0.0488281
0.2285,0.0515747,-0.140991
0.229,0.0466919,-0.170898
0.2295,0.0442505,-0.274658
0.23,0.0396729,-0.380249
0.2305,0.0350952,-0.474548
0.231,0.0323486,-0.50415
0.2315,0.0326538,-0.496216
0.232,0.0317383,-0.452271
0.2325,0.0274658,-0.339355
0.233,0.0228882,-0.223694
0.2335,0.0228882,-0.130615
0.234,0.0195313,0.0689697
0.23450000000000001,0.0210571,0.307312
0.23500000000000001,0.0231934,0.51239
0.23550000000000001,0.0259399,0.592041
0.23600000000000002,0.0283813,0.486145
0.23650000000000002,0.0262451,0.411072
0.23700000000000002,0.0216675,0.384827
0.23750000000000002,0.0152588,0.376282
0.23800000000000002,0.0158691,0.344849
0.23850000000000002,0.0195313,0.308533
0.23900000000000002,0.0234985,0.26123
0.23950000000000002,0.0244141,0.229187
0.24,0.0213623,0.19165
0.2405,0.0170898,0.142517
0.241,0.0180054,0.105896
0.2415,0.017395,0.0708008
0.242,0.0198364,0.0390625
0.2425,0.0256348,0.00457764
0.243,0.0289917,-0.045166
0.2435,0.0256348,-0.0857544
0.244,0.0180054,-0.119934
0.2445,0.00701904,-0.154114
0.245,-0.00152588,-0.196228
0.2455,-0.00732422,-0.26001
0.246,-0.012207,-0.391846
0.2465,-0.0128174,-0.534058
0.247,-0.00976563,-0.55542
0.2475,-0.00793457,-0.510254
0.248,-0.0109863,-0.413208
0.2485,-0.0137329,-0.333557
0.249,-0.0167847,-0.243225
0.2495,-0.020752,-0.138855
0.25,-0.0238037,-0.00762939
0.2505,-0.0271606,0.151062
0.251,-0.0204468,0.289612
0.2515,-0.0125122,0.351257
0.252,-0.0128174,0.342712
0.2525,-0.0183105,0.26123
0.253,-0.0332642,0.199585
0.2535,-0.0463867,0.210571
0.254,-0.0485229,0.245667
0.2545,-0.0436401,0.226135
0.255,-0.039978,0.202942
0.2555,-0.0436401,0.118103
0.256,-0.0515747,-0.00915527
0.2565,-0.0604248,-0.102844
0.257,-0.0595093,-0.176392
0.2575,-0.0473022,-0.204468
0.258,-0.0411987,-0.209961
0.2585,-0.0292969,-0.204468
0.259,-0.00610352,-0.204163
0.2595,0.0189209,-0.190735
0.26,0.0436401,-0.163269
0.2605,0.0650024,-0.142822
0.261,0.0933838,-0.12207
0.2615,0.123291,-0.0564575
0.262,0.155945,0.204773
0.2625,0.19928,0.362244
0.263,0.217896,0.25116
0.2635,0.189514,0.108032
0.264,0.138855,0.00427246
0.2645,0.0848389,-0.0442505
0.265,0.0390625,-0.0601196
0.2655,0.00946045,-0.0494385
0.266,-0.00640869,-0.0311279
0.2665,-0.0201416,-0.0268555
0.267,-0.0378418,-0.0335693
0.2675,-0.0588989,-0.0317383
0.268,-0.0814819,-0.0320435
0.2685,-0.11322,-0.0317383
0.269,-0.168152,-0.0320435
0.2695,-0.237122,-0.0366211
0.27,-0.348511,-0.0408936
0.2705,-0.466919,-0.0463867
0.271,-0.548706,-0.0540161
0.2715,-0.595093,-0.0662231
0.272,-0.588684,-0.101318
0.2725,-0.535278,-0.128479
0.273,-0.43335,-0.134888
0.2735,-0.299072,-0.123901
0.274,-0.112305,-0.109558
0.2745,0.0994873,-0.0921631
0.275,0.362854,-0.0592041
0.2755,0.700378,-0.0170898
0.276,1.02112,0.0198364
0.2765,1.27625,0.12207
0.277,1.35559,0.248718
0.2775,1.21277,0.35553
0.278,0.904541,0.417786
0.2785,0.555115,0.317383
0.279,0.267029,0.172729
0.2795,0.0762939,0.045166
0.28,-0.0494385,-0.0588989
0.2805,-0.134888,-0.0512695
0.281,-0.191345,-0.0012207
0.28150000000000003,-0.229187,0.0137329
0.28200000000000003,-0.25116,-0.0454712
0.28250000000000003,-0.260925,-0.142212
0.28300000000000003,-0.269165,-0.195923
0.28350000000000003,-0.276184,-0.196228
0.28400000000000003,-0.278931,-0.0769043
0.28450000000000003,-0.276489,0.0717163
0.28500000000000003,-0.264282,0.151978
0.28550000000000003,-0.25177,0.169678
0.28600000000000003,-0.240479,0.108948
0.28650000000000003,-0.230103,-0.00854492
0.28700000000000003,-0.219116,-0.0497437
0.28750000000000003,-0.205078,-0.0228882
0.28800000000000003,-0.19104,-0.0180054
0.2885,-0.179138,-0.0280762
0.289,-0.163574,-0.0396729
0.2895,-0.151367,-0.0506592
0.29,-0.137634,-0.0527954
0.2905,-0.124817,-0.0445557
0.291,-0.110779,-0.0390625
0.2915,-0.0991821,-0.0271606
0.292,-0.0888062,-0.0198364
0.2925,-0.0769043,-0.012207
0.293,-0.062561,-0.00213623
0.2935,-0.0491333,0.00396729
0.294,-0.0363159,0.0146484
0.2945,-0.0259399,0.0335693
0.295,-0.0146484,-0.00305176
0.2955,-0.00183105,-0.0802612
0.296,0.0088501,-0.132446
0.2965,0.0131226,-0.180054
0.297,0.0195313,-0.317383
0.2975,0.027771,-0.358276
0.298,0.0280762,-0.342102
0.2985,0.0265503,-0.316467
0.299,0.0253296,-0.233459
0.2995,0.0311279,-0.107727
0.3,0.0405884,0.0201416
0.3005,0.0466919,0.13916
0.301,0.0482178,0.20813
0.3015,0.0469971,0.26001
0.302,0.0427246,0.264587
0.3025,0.043335,0.207825
0.303,0.0463867,0.111084
0.3035,0.0460815,0.0863647
0.304,0.0424194,0.115051
0.3045,0.0335693,0.142822
0.305,0.0299072,0.144653
0.3055,0.0259399,0.107727
0.306,0.0274658,0.102539
0.3065,0.0289917,0.218201
0.307,0.0296021,0.487366
0.3075,0.0296021,0.772705
0.308,0.022583,0.718994
0.3085,0.0140381,0.485229
0.309,0.0100708,0.189514
0.3095,0.00335693,-0.0109863
0.31,-0.00579834,-0.0839233
0.3105,-0.0158691,-0.117493
0.311,-0.0244141,-0.163574
0.3115,-0.0354004,-0.195618
0.312,-0.0421143,-0.187378
0.3125,-0.0543213,-0.181885
0.313,-0.0628662,-0.177612
0.3135,-0.0500488,-0.169373
0.314,-0.0247192,-0.155334
0.3145,0.0216675,-0.1297
0.315,0.0576782,-0.114136
0.3155,0.0967407,-0.123901
0.316,0.103149,-0.134888
0.3165,0.102234,-0.130005
0.317,0.100708,-0.112305
0.3175,0.103149,-0.0686646
0.318,0.088501,-0.0415039
0.3185,0.0817871,-0.0549316
0.319,0.0946045,-0.0845337
0.3195,0.115967,-0.0909424
0.32,0.137024,-0.0805664
0.3205,0.132751,-0.0726318
0.321,0.0686646,-0.0704956
0.3215,-0.00244141,-0.071106
0.322,-0.0488281,-0.0637817
0.3225,-0.147095,-0.0567627
0.323,-0.265503,-0.0637817
0.3235,-0.346375,-0.0732422
0.324,-0.37323,-0.0952148
0.3245,-0.463562,-0.10437
0.325,-0.557251,-0.109558
0.3255,-0.595093,-0.118713
0.326,-0.588989,-0.116577
0.3265,-0.536194,-0.105286
0.327,-0.432739,-0.0741577
0.3275,-0.229187,0.017395
0.328,0.0634766,0.0759888
0.3285,0.419006,0.0439453
0.329,0.771484,0.0378418
0.3295,1.02234,0.133667
0.33,1.16669,0.227051
0.3305,1.2619,0.335999
0.331,1.25214,0.371704
0.3315,1.07819,0.253906
0.332,0.763855,0.0762939
0.3325,0.418701,-0.0546265
0.333,0.145874,-0.118103
0.3335,-0.0250244,-0.123901
0.334,-0.128174,-0.0732422
0.3345,-0.203247,-0.0543213
0.335,-0.240784,-0.0613403
0.3355,-0.256348,-0.0717163
0.336,-0.269775,-0.083313
0.3365,-0.288696,-0.112305
0.337,-0.299988,-0.158997
0.3375,-0.309143,-0.167847
0.338,-0.314636,-0.163574
0.3385,-0.317993,-0.163269
0.339,-0.318604,-0.186768
0.3395,-0.325623,-0.112305
0.34,-0.338745,0.0360107
0.3405,-0.338745,0.125122
0.341,-0.323792,0.13031
0.3415,-0.303955,0.121155
0.342,-0.283813,0.146484
0.3425,-0.269165,0.218811
0.343,-0.250244,0.276794
0.3435,-0.223389,0.276489
0.34400000000000003,-0.19043,0.285645
0.34450000000000003,-0.155334,0.273743
0.34500000000000003,-0.101318,0.183411
0.34550000000000003,-0.0357056,0.0701904
0.34600000000000003,0.0305176,0.0268555
0.34650000000000003,0.0753784,0.00579834
0.34700000000000003,0.11261,-0.00640869
0.34750000000000003,0.143738,0.0238037
0.34800000000000003,0.156555,0.0201416
0.34850000000000003,0.154419,-0.0152588
0.34900000000000003,0.155029,-0.0457764
0.34950000000000003,0.140686,-0.0735474
0.35000000000000003,0.11261,-0.098877
